# Temperatura_=_20.0
# Concentracion g/m^3_=_10000.0
# C_Vs_to_Am_M_A/Vsm_=_116720831517.84952
# pendiente_HvsI_1/m_=_3716.3
# ordenada_HvsI_A/m_=_1297.0
# frecuencia_Hz_=_135455.09252172522
# Promedio de 22 ciclos

Tiempo_(s)	Campo_(V.s)	Magnetizacion_(V.s)	Campo_(kA/m)	Magnetizacion_(A/m)
0.000000e+00	-8.965001e-09	-3.691744e-09	-4.581748e+01	-4.391295e+02
1.000000e-08	-8.964937e-09	-3.695943e-09	-4.581715e+01	-4.391189e+02
2.000000e-08	-8.964468e-09	-3.697188e-09	-4.581475e+01	-4.390766e+02
3.000000e-08	-8.963438e-09	-3.696780e-09	-4.580949e+01	-4.390024e+02
4.000000e-08	-8.961642e-09	-3.697116e-09	-4.580031e+01	-4.388963e+02
5.000000e-08	-8.958943e-09	-3.695510e-09	-4.578652e+01	-4.387584e+02
6.000000e-08	-8.955423e-09	-3.694900e-09	-4.576852e+01	-4.385887e+02
7.000000e-08	-8.951347e-09	-3.700028e-09	-4.574769e+01	-4.383871e+02
8.000000e-08	-8.946813e-09	-3.703113e-09	-4.572452e+01	-4.381538e+02
9.000000e-08	-8.941594e-09	-3.680917e-09	-4.569785e+01	-4.378887e+02
1.000000e-07	-8.935341e-09	-3.650906e-09	-4.566589e+01	-4.375918e+02
1.100000e-07	-8.928003e-09	-3.663005e-09	-4.562839e+01	-4.372632e+02
1.200000e-07	-8.920042e-09	-3.700765e-09	-4.558770e+01	-4.369029e+02
1.300000e-07	-8.911951e-09	-3.693003e-09	-4.554635e+01	-4.365108e+02
1.400000e-07	-8.903616e-09	-3.670257e-09	-4.550375e+01	-4.360872e+02
1.500000e-07	-8.894477e-09	-3.699423e-09	-4.545704e+01	-4.356318e+02
1.600000e-07	-8.884402e-09	-3.731842e-09	-4.540555e+01	-4.351449e+02
1.700000e-07	-8.873817e-09	-3.663205e-09	-4.535146e+01	-4.346264e+02
1.800000e-07	-8.862719e-09	-3.629085e-09	-4.529474e+01	-4.340764e+02
1.900000e-07	-8.850709e-09	-3.696536e-09	-4.523336e+01	-4.334949e+02
2.000000e-07	-8.837938e-09	-3.742082e-09	-4.516809e+01	-4.328820e+02
2.100000e-07	-8.824704e-09	-3.675881e-09	-4.510045e+01	-4.322377e+02
2.200000e-07	-8.810672e-09	-3.662249e-09	-4.502874e+01	-4.315620e+02
2.300000e-07	-8.795597e-09	-3.707161e-09	-4.495170e+01	-4.308550e+02
2.400000e-07	-8.779758e-09	-3.686810e-09	-4.487074e+01	-4.301167e+02
2.500000e-07	-8.763192e-09	-3.622930e-09	-4.478608e+01	-4.293473e+02
2.600000e-07	-8.745807e-09	-3.630293e-09	-4.469723e+01	-4.285467e+02
2.700000e-07	-8.727836e-09	-3.643203e-09	-4.460538e+01	-4.277150e+02
2.800000e-07	-8.709389e-09	-3.614674e-09	-4.451111e+01	-4.268523e+02
2.900000e-07	-8.690271e-09	-3.639064e-09	-4.441340e+01	-4.259586e+02
3.000000e-07	-8.670499e-09	-3.653445e-09	-4.431235e+01	-4.250341e+02
3.100000e-07	-8.650316e-09	-3.593692e-09	-4.420920e+01	-4.240787e+02
3.200000e-07	-8.629706e-09	-3.561023e-09	-4.410387e+01	-4.230925e+02
3.300000e-07	-8.608561e-09	-3.625523e-09	-4.399580e+01	-4.220757e+02
3.400000e-07	-8.586949e-09	-3.613335e-09	-4.388535e+01	-4.210282e+02
3.500000e-07	-8.564827e-09	-3.567096e-09	-4.377229e+01	-4.199502e+02
3.600000e-07	-8.542017e-09	-3.574245e-09	-4.365572e+01	-4.188418e+02
3.700000e-07	-8.518568e-09	-3.583318e-09	-4.353587e+01	-4.177029e+02
3.800000e-07	-8.494627e-09	-3.536456e-09	-4.341352e+01	-4.165338e+02
3.900000e-07	-8.470170e-09	-3.530002e-09	-4.328852e+01	-4.153344e+02
4.000000e-07	-8.445129e-09	-3.526281e-09	-4.316055e+01	-4.141049e+02
4.100000e-07	-8.419330e-09	-3.499806e-09	-4.302870e+01	-4.128454e+02
4.200000e-07	-8.392549e-09	-3.504502e-09	-4.289183e+01	-4.115559e+02
4.300000e-07	-8.364904e-09	-3.523729e-09	-4.275054e+01	-4.102366e+02
4.400000e-07	-8.336753e-09	-3.492102e-09	-4.260667e+01	-4.088875e+02
4.500000e-07	-8.308207e-09	-3.464274e-09	-4.246078e+01	-4.075087e+02
4.600000e-07	-8.279165e-09	-3.464121e-09	-4.231235e+01	-4.061004e+02
4.700000e-07	-8.249581e-09	-3.454558e-09	-4.216116e+01	-4.046626e+02
4.800000e-07	-8.219456e-09	-3.441929e-09	-4.200720e+01	-4.031955e+02
4.900000e-07	-8.188782e-09	-3.437183e-09	-4.185043e+01	-4.016991e+02
5.000000e-07	-8.157546e-09	-3.417886e-09	-4.169079e+01	-4.001736e+02
5.100000e-07	-8.125792e-09	-3.394955e-09	-4.152850e+01	-3.986191e+02
5.200000e-07	-8.093617e-09	-3.379322e-09	-4.136407e+01	-3.970356e+02
5.300000e-07	-8.061010e-09	-3.360549e-09	-4.119742e+01	-3.954233e+02
5.400000e-07	-8.027773e-09	-3.353574e-09	-4.102756e+01	-3.937824e+02
5.500000e-07	-7.993654e-09	-3.352561e-09	-4.085319e+01	-3.921128e+02
5.600000e-07	-7.958581e-09	-3.344196e-09	-4.067394e+01	-3.904149e+02
5.700000e-07	-7.922787e-09	-3.327292e-09	-4.049101e+01	-3.886886e+02
5.800000e-07	-7.886562e-09	-3.310270e-09	-4.030587e+01	-3.869341e+02
5.900000e-07	-7.849982e-09	-3.285578e-09	-4.011892e+01	-3.851515e+02
6.000000e-07	-7.812950e-09	-3.263788e-09	-3.992966e+01	-3.833410e+02
6.100000e-07	-7.775354e-09	-3.247312e-09	-3.973752e+01	-3.815027e+02
6.200000e-07	-7.737200e-09	-3.238387e-09	-3.954252e+01	-3.796367e+02
6.300000e-07	-7.698518e-09	-3.233348e-09	-3.934483e+01	-3.777432e+02
6.400000e-07	-7.659286e-09	-3.225986e-09	-3.914433e+01	-3.758223e+02
6.500000e-07	-7.619546e-09	-3.201643e-09	-3.894123e+01	-3.738741e+02
6.600000e-07	-7.579384e-09	-3.179441e-09	-3.873597e+01	-3.718988e+02
6.700000e-07	-7.538793e-09	-3.163981e-09	-3.852852e+01	-3.698965e+02
6.800000e-07	-7.497632e-09	-3.154602e-09	-3.831816e+01	-3.678673e+02
6.900000e-07	-7.455728e-09	-3.139972e-09	-3.810400e+01	-3.658115e+02
7.000000e-07	-7.412989e-09	-3.121702e-09	-3.788558e+01	-3.637291e+02
7.100000e-07	-7.369510e-09	-3.099855e-09	-3.766337e+01	-3.616204e+02
7.200000e-07	-7.325500e-09	-3.085052e-09	-3.743844e+01	-3.594854e+02
7.300000e-07	-7.281104e-09	-3.072512e-09	-3.721155e+01	-3.573243e+02
7.400000e-07	-7.236337e-09	-3.059312e-09	-3.698276e+01	-3.551373e+02
7.500000e-07	-7.191126e-09	-3.041793e-09	-3.675170e+01	-3.529245e+02
7.600000e-07	-7.145402e-09	-3.026154e-09	-3.651801e+01	-3.506861e+02
7.700000e-07	-7.099132e-09	-3.010662e-09	-3.628154e+01	-3.484223e+02
7.800000e-07	-7.052318e-09	-2.993957e-09	-3.604229e+01	-3.461332e+02
7.900000e-07	-7.004979e-09	-2.972637e-09	-3.580035e+01	-3.438190e+02
8.000000e-07	-6.957158e-09	-2.950676e-09	-3.555596e+01	-3.414798e+02
8.100000e-07	-6.908864e-09	-2.933014e-09	-3.530914e+01	-3.391159e+02
8.200000e-07	-6.860039e-09	-2.919543e-09	-3.505961e+01	-3.367273e+02
8.300000e-07	-6.810567e-09	-2.905271e-09	-3.480677e+01	-3.343144e+02
8.400000e-07	-6.760352e-09	-2.886798e-09	-3.455014e+01	-3.318771e+02
8.500000e-07	-6.709398e-09	-2.868545e-09	-3.428973e+01	-3.294158e+02
8.600000e-07	-6.657794e-09	-2.852644e-09	-3.402600e+01	-3.269306e+02
8.700000e-07	-6.605669e-09	-2.836164e-09	-3.375960e+01	-3.244216e+02
8.800000e-07	-6.553092e-09	-2.813739e-09	-3.349089e+01	-3.218892e+02
8.900000e-07	-6.500070e-09	-2.789431e-09	-3.321991e+01	-3.193333e+02
9.000000e-07	-6.446565e-09	-2.765482e-09	-3.294646e+01	-3.167543e+02
9.100000e-07	-6.392575e-09	-2.746533e-09	-3.267053e+01	-3.141523e+02
9.200000e-07	-6.338136e-09	-2.728211e-09	-3.239231e+01	-3.115275e+02
9.300000e-07	-6.283235e-09	-2.711743e-09	-3.211173e+01	-3.088801e+02
9.400000e-07	-6.227879e-09	-2.695556e-09	-3.182882e+01	-3.062103e+02
9.500000e-07	-6.172126e-09	-2.679949e-09	-3.154388e+01	-3.035182e+02
9.600000e-07	-6.116006e-09	-2.659705e-09	-3.125707e+01	-3.008041e+02
9.700000e-07	-6.059526e-09	-2.633919e-09	-3.096842e+01	-2.980682e+02
9.800000e-07	-6.002673e-09	-2.602685e-09	-3.067786e+01	-2.953107e+02
9.900000e-07	-5.945367e-09	-2.573119e-09	-3.038499e+01	-2.925317e+02
1.000000e-06	-5.887518e-09	-2.549160e-09	-3.008934e+01	-2.897315e+02
1.010000e-06	-5.829091e-09	-2.532168e-09	-2.979073e+01	-2.869103e+02
1.020000e-06	-5.770109e-09	-2.514108e-09	-2.948930e+01	-2.840683e+02
1.030000e-06	-5.710635e-09	-2.491538e-09	-2.918534e+01	-2.812056e+02
1.040000e-06	-5.650733e-09	-2.463827e-09	-2.887920e+01	-2.783225e+02
1.050000e-06	-5.590478e-09	-2.437067e-09	-2.857125e+01	-2.754192e+02
1.060000e-06	-5.529913e-09	-2.411685e-09	-2.826172e+01	-2.724960e+02
1.070000e-06	-5.469009e-09	-2.385532e-09	-2.795046e+01	-2.695529e+02
1.080000e-06	-5.407730e-09	-2.356046e-09	-2.763728e+01	-2.665903e+02
1.090000e-06	-5.346067e-09	-2.326079e-09	-2.732214e+01	-2.636083e+02
1.100000e-06	-5.284018e-09	-2.299077e-09	-2.700502e+01	-2.606072e+02
1.110000e-06	-5.221599e-09	-2.273182e-09	-2.668602e+01	-2.575872e+02
1.120000e-06	-5.158833e-09	-2.245410e-09	-2.636524e+01	-2.545485e+02
1.130000e-06	-5.095734e-09	-2.216704e-09	-2.604276e+01	-2.514913e+02
1.140000e-06	-5.032302e-09	-2.190548e-09	-2.571858e+01	-2.484158e+02
1.150000e-06	-4.968539e-09	-2.167987e-09	-2.539270e+01	-2.453224e+02
1.160000e-06	-4.904488e-09	-2.145487e-09	-2.506536e+01	-2.422111e+02
1.170000e-06	-4.840167e-09	-2.117802e-09	-2.473663e+01	-2.390822e+02
1.180000e-06	-4.775582e-09	-2.086175e-09	-2.440655e+01	-2.359359e+02
1.190000e-06	-4.710705e-09	-2.054164e-09	-2.407499e+01	-2.327726e+02
1.200000e-06	-4.645435e-09	-2.025915e-09	-2.374141e+01	-2.295923e+02
1.210000e-06	-4.579713e-09	-1.998676e-09	-2.340552e+01	-2.263953e+02
1.220000e-06	-4.513542e-09	-1.971616e-09	-2.306734e+01	-2.231820e+02
1.230000e-06	-4.446921e-09	-1.944961e-09	-2.272686e+01	-2.199524e+02
1.240000e-06	-4.379857e-09	-1.920237e-09	-2.238412e+01	-2.167068e+02
1.250000e-06	-4.312409e-09	-1.896613e-09	-2.203941e+01	-2.134455e+02
1.260000e-06	-4.244659e-09	-1.872223e-09	-2.169316e+01	-2.101687e+02
1.270000e-06	-4.176652e-09	-1.845004e-09	-2.134560e+01	-2.068766e+02
1.280000e-06	-4.108413e-09	-1.816396e-09	-2.099685e+01	-2.035695e+02
1.290000e-06	-4.039968e-09	-1.787151e-09	-2.064704e+01	-2.002477e+02
1.300000e-06	-3.971331e-09	-1.756481e-09	-2.029626e+01	-1.969112e+02
1.310000e-06	-3.902478e-09	-1.722741e-09	-1.994437e+01	-1.935605e+02
1.320000e-06	-3.833372e-09	-1.690924e-09	-1.959120e+01	-1.901957e+02
1.330000e-06	-3.764005e-09	-1.665099e-09	-1.923668e+01	-1.868171e+02
1.340000e-06	-3.694382e-09	-1.643339e-09	-1.888086e+01	-1.834250e+02
1.350000e-06	-3.624472e-09	-1.620228e-09	-1.852357e+01	-1.800195e+02
1.360000e-06	-3.554251e-09	-1.594945e-09	-1.816469e+01	-1.766009e+02
1.370000e-06	-3.483743e-09	-1.566394e-09	-1.780434e+01	-1.731695e+02
1.380000e-06	-3.412953e-09	-1.536260e-09	-1.744255e+01	-1.697255e+02
1.390000e-06	-3.341928e-09	-1.505503e-09	-1.707957e+01	-1.662692e+02
1.400000e-06	-3.270720e-09	-1.474847e-09	-1.671564e+01	-1.628008e+02
1.410000e-06	-3.199327e-09	-1.444629e-09	-1.635077e+01	-1.593205e+02
1.420000e-06	-3.127757e-09	-1.417309e-09	-1.598500e+01	-1.558287e+02
1.430000e-06	-3.056011e-09	-1.394222e-09	-1.561833e+01	-1.523256e+02
1.440000e-06	-2.984070e-09	-1.372131e-09	-1.525066e+01	-1.488114e+02
1.450000e-06	-2.911945e-09	-1.347476e-09	-1.488205e+01	-1.452863e+02
1.460000e-06	-2.839658e-09	-1.320150e-09	-1.451261e+01	-1.417507e+02
1.470000e-06	-2.767190e-09	-1.293339e-09	-1.414225e+01	-1.382048e+02
1.480000e-06	-2.694515e-09	-1.267102e-09	-1.377082e+01	-1.346489e+02
1.490000e-06	-2.621603e-09	-1.238273e-09	-1.339819e+01	-1.310831e+02
1.500000e-06	-2.548447e-09	-1.206127e-09	-1.302432e+01	-1.275078e+02
1.510000e-06	-2.475063e-09	-1.173933e-09	-1.264927e+01	-1.239233e+02
1.520000e-06	-2.401460e-09	-1.143599e-09	-1.227311e+01	-1.203297e+02
1.530000e-06	-2.327648e-09	-1.115799e-09	-1.189588e+01	-1.167274e+02
1.540000e-06	-2.253632e-09	-1.089026e-09	-1.151760e+01	-1.131166e+02
1.550000e-06	-2.179425e-09	-1.061082e-09	-1.113836e+01	-1.094975e+02
1.560000e-06	-2.105035e-09	-1.031235e-09	-1.075817e+01	-1.058705e+02
1.570000e-06	-2.030465e-09	-1.002910e-09	-1.037707e+01	-1.022358e+02
1.580000e-06	-1.955720e-09	-9.735280e-10	-9.995069e+00	-9.859364e+01
1.590000e-06	-1.880797e-09	-9.418867e-10	-9.612160e+00	-9.494430e+01
1.600000e-06	-1.805710e-09	-9.080892e-10	-9.228412e+00	-9.128804e+01
1.610000e-06	-1.730437e-09	-8.738193e-10	-8.843714e+00	-8.762513e+01
1.620000e-06	-1.654966e-09	-8.411705e-10	-8.458005e+00	-8.395583e+01
1.630000e-06	-1.579311e-09	-8.096037e-10	-8.071356e+00	-8.028042e+01
1.640000e-06	-1.503491e-09	-7.768803e-10	-7.683860e+00	-7.659915e+01
1.650000e-06	-1.427541e-09	-7.434914e-10	-7.295701e+00	-7.291229e+01
1.660000e-06	-1.351476e-09	-7.117452e-10	-6.906956e+00	-6.922012e+01
1.670000e-06	-1.275319e-09	-6.834126e-10	-6.517741e+00	-6.552290e+01
1.680000e-06	-1.199102e-09	-6.559325e-10	-6.128217e+00	-6.182089e+01
1.690000e-06	-1.122820e-09	-6.247561e-10	-5.738364e+00	-5.811437e+01
1.700000e-06	-1.046467e-09	-5.884985e-10	-5.348144e+00	-5.440360e+01
1.710000e-06	-9.700563e-10	-5.493333e-10	-4.957631e+00	-5.068885e+01
1.720000e-06	-8.935721e-10	-5.115064e-10	-4.566742e+00	-4.697040e+01
1.730000e-06	-8.170035e-10	-4.765105e-10	-4.175422e+00	-4.324850e+01
1.740000e-06	-7.403627e-10	-4.439850e-10	-3.783734e+00	-3.952344e+01
1.750000e-06	-6.636721e-10	-4.137277e-10	-3.391790e+00	-3.579548e+01
1.760000e-06	-5.869364e-10	-3.838954e-10	-2.999617e+00	-3.206488e+01
1.770000e-06	-5.101518e-10	-3.526642e-10	-2.607193e+00	-2.833193e+01
1.780000e-06	-4.333466e-10	-3.206108e-10	-2.214664e+00	-2.459689e+01
1.790000e-06	-3.565061e-10	-2.859078e-10	-1.821955e+00	-2.086003e+01
1.800000e-06	-2.796339e-10	-2.461959e-10	-1.429083e+00	-1.712162e+01
1.810000e-06	-2.027695e-10	-2.043509e-10	-1.036252e+00	-1.338194e+01
1.820000e-06	-1.259090e-10	-1.633721e-10	-6.434400e-01	-9.641247e+00
1.830000e-06	-4.905688e-11	-1.274856e-10	-2.506713e-01	-5.899823e+00
1.840000e-06	2.777472e-11	-9.884225e-11	1.419924e-01	-2.157935e+00
1.850000e-06	1.045933e-10	-7.002207e-11	5.345896e-01	1.584146e+00
1.860000e-06	1.813867e-10	-3.786756e-11	9.270584e-01	5.326147e+00
1.870000e-06	2.581515e-10	-2.472558e-12	1.319381e+00	9.067799e+00
1.880000e-06	3.349193e-10	3.262359e-11	1.711719e+00	1.280883e+01
1.890000e-06	4.116991e-10	6.664496e-11	2.104118e+00	1.654897e+01
1.900000e-06	4.884706e-10	1.004313e-10	2.496474e+00	2.028795e+01
1.910000e-06	5.652097e-10	1.339184e-10	2.888665e+00	2.402549e+01
1.920000e-06	6.419013e-10	1.683794e-10	3.280614e+00	2.776133e+01
1.930000e-06	7.185386e-10	2.019629e-10	3.672284e+00	3.149519e+01
1.940000e-06	7.951154e-10	2.359980e-10	4.063646e+00	3.522681e+01
1.950000e-06	8.716347e-10	2.734517e-10	4.454714e+00	3.895591e+01
1.960000e-06	9.480634e-10	3.130763e-10	4.845319e+00	4.268222e+01
1.970000e-06	1.024375e-09	3.475335e-10	5.235323e+00	4.640548e+01
1.980000e-06	1.100597e-09	3.728161e-10	5.624875e+00	5.012541e+01
1.990000e-06	1.176729e-09	3.947343e-10	6.013963e+00	5.384175e+01
2.000000e-06	1.252760e-09	4.240932e-10	6.402535e+00	5.755422e+01
2.010000e-06	1.328702e-09	4.656604e-10	6.790649e+00	6.126256e+01
2.020000e-06	1.404566e-09	5.116409e-10	7.178370e+00	6.496649e+01
2.030000e-06	1.480312e-09	5.514216e-10	7.565484e+00	6.866576e+01
2.040000e-06	1.555914e-09	5.830801e-10	7.951864e+00	7.236008e+01
2.050000e-06	1.631395e-09	6.109486e-10	8.337623e+00	7.604920e+01
2.060000e-06	1.706732e-09	6.387313e-10	8.722647e+00	7.973285e+01
2.070000e-06	1.781898e-09	6.663976e-10	9.106798e+00	8.341075e+01
2.080000e-06	1.856881e-09	6.920662e-10	9.490011e+00	8.708265e+01
2.090000e-06	1.931667e-09	7.206426e-10	9.872220e+00	9.074827e+01
2.100000e-06	2.006236e-09	7.584438e-10	1.025332e+01	9.440736e+01
2.110000e-06	2.080585e-09	8.020729e-10	1.063330e+01	9.805964e+01
2.120000e-06	2.154727e-09	8.429480e-10	1.101221e+01	1.017048e+02
2.130000e-06	2.228651e-09	8.761260e-10	1.139001e+01	1.053427e+02
2.140000e-06	2.302346e-09	9.032660e-10	1.176665e+01	1.089730e+02
2.150000e-06	2.375821e-09	9.292872e-10	1.214216e+01	1.125954e+02
2.160000e-06	2.449101e-09	9.568183e-10	1.251667e+01	1.162097e+02
2.170000e-06	2.522207e-09	9.832477e-10	1.289029e+01	1.198157e+02
2.180000e-06	2.595125e-09	1.011199e-09	1.326295e+01	1.234129e+02
2.190000e-06	2.667855e-09	1.046390e-09	1.363466e+01	1.270013e+02
2.200000e-06	2.740383e-09	1.088170e-09	1.400533e+01	1.305805e+02
2.210000e-06	2.812696e-09	1.131721e-09	1.437490e+01	1.341503e+02
2.220000e-06	2.884798e-09	1.168263e-09	1.474339e+01	1.377104e+02
2.230000e-06	2.956696e-09	1.195520e-09	1.511084e+01	1.412605e+02
2.240000e-06	3.028419e-09	1.218365e-09	1.547739e+01	1.448005e+02
2.250000e-06	3.099964e-09	1.243472e-09	1.584304e+01	1.483300e+02
2.260000e-06	3.171319e-09	1.273642e-09	1.620772e+01	1.518488e+02
2.270000e-06	3.242485e-09	1.307076e-09	1.657142e+01	1.553566e+02
2.280000e-06	3.313433e-09	1.342398e-09	1.693402e+01	1.588532e+02
2.290000e-06	3.384145e-09	1.378346e-09	1.729541e+01	1.623383e+02
2.300000e-06	3.454650e-09	1.414869e-09	1.765574e+01	1.658117e+02
2.310000e-06	3.524911e-09	1.449590e-09	1.801482e+01	1.692732e+02
2.320000e-06	3.594898e-09	1.481099e-09	1.837250e+01	1.727224e+02
2.330000e-06	3.664617e-09	1.510152e-09	1.872882e+01	1.761591e+02
2.340000e-06	3.734057e-09	1.538921e-09	1.908370e+01	1.795831e+02
2.350000e-06	3.803244e-09	1.570978e-09	1.943729e+01	1.829941e+02
2.360000e-06	3.872198e-09	1.603485e-09	1.978970e+01	1.863919e+02
2.370000e-06	3.940923e-09	1.632806e-09	2.014093e+01	1.897762e+02
2.380000e-06	4.009409e-09	1.659738e-09	2.049095e+01	1.931468e+02
2.390000e-06	4.077654e-09	1.687390e-09	2.083972e+01	1.965035e+02
2.400000e-06	4.145639e-09	1.720473e-09	2.118718e+01	1.998459e+02
2.410000e-06	4.213343e-09	1.757582e-09	2.153319e+01	2.031739e+02
2.420000e-06	4.280742e-09	1.794168e-09	2.187765e+01	2.064873e+02
2.430000e-06	4.347835e-09	1.826398e-09	2.222054e+01	2.097857e+02
2.440000e-06	4.414586e-09	1.855686e-09	2.256169e+01	2.130689e+02
2.450000e-06	4.480918e-09	1.884664e-09	2.290069e+01	2.163367e+02
2.460000e-06	4.546805e-09	1.913303e-09	2.323741e+01	2.195889e+02
2.470000e-06	4.612271e-09	1.940695e-09	2.357199e+01	2.228253e+02
2.480000e-06	4.677344e-09	1.966568e-09	2.390456e+01	2.260455e+02
2.490000e-06	4.742068e-09	1.994098e-09	2.423535e+01	2.292494e+02
2.500000e-06	4.806468e-09	2.026178e-09	2.456448e+01	2.324367e+02
2.510000e-06	4.870547e-09	2.061008e-09	2.489196e+01	2.356072e+02
2.520000e-06	4.934345e-09	2.092588e-09	2.521802e+01	2.387606e+02
2.530000e-06	4.997858e-09	2.118967e-09	2.554261e+01	2.418968e+02
2.540000e-06	5.061068e-09	2.144511e-09	2.586566e+01	2.450155e+02
2.550000e-06	5.123972e-09	2.171807e-09	2.618715e+01	2.481165e+02
2.560000e-06	5.186543e-09	2.198822e-09	2.650693e+01	2.511996e+02
2.570000e-06	5.248754e-09	2.222588e-09	2.682487e+01	2.542645e+02
2.580000e-06	5.310613e-09	2.244729e-09	2.714101e+01	2.573110e+02
2.590000e-06	5.372124e-09	2.271551e-09	2.745538e+01	2.603389e+02
2.600000e-06	5.433299e-09	2.304520e-09	2.776802e+01	2.633479e+02
2.610000e-06	5.494154e-09	2.338676e-09	2.807904e+01	2.663380e+02
2.620000e-06	5.554690e-09	2.367550e-09	2.838842e+01	2.693087e+02
2.630000e-06	5.614894e-09	2.391488e-09	2.869610e+01	2.722600e+02
2.640000e-06	5.674732e-09	2.416362e-09	2.900191e+01	2.751916e+02
2.650000e-06	5.734154e-09	2.443363e-09	2.930560e+01	2.781033e+02
2.660000e-06	5.793059e-09	2.467278e-09	2.960665e+01	2.809949e+02
2.670000e-06	5.851365e-09	2.484170e-09	2.990463e+01	2.838662e+02
2.680000e-06	5.909075e-09	2.500922e-09	3.019957e+01	2.867169e+02
2.690000e-06	5.966245e-09	2.526641e-09	3.049175e+01	2.895469e+02
2.700000e-06	6.022951e-09	2.559414e-09	3.078156e+01	2.923559e+02
2.710000e-06	6.079269e-09	2.589481e-09	3.106938e+01	2.951438e+02
2.720000e-06	6.135247e-09	2.612568e-09	3.135547e+01	2.979104e+02
2.730000e-06	6.190886e-09	2.633688e-09	3.163982e+01	3.006554e+02
2.740000e-06	6.246158e-09	2.657476e-09	3.192230e+01	3.033787e+02
2.750000e-06	6.301005e-09	2.683395e-09	3.220261e+01	3.060800e+02
2.760000e-06	6.355400e-09	2.704518e-09	3.248060e+01	3.087592e+02
2.770000e-06	6.409356e-09	2.719187e-09	3.275636e+01	3.114160e+02
2.780000e-06	6.462861e-09	2.734548e-09	3.302980e+01	3.140503e+02
2.790000e-06	6.515868e-09	2.757282e-09	3.330071e+01	3.166619e+02
2.800000e-06	6.568369e-09	2.786206e-09	3.356902e+01	3.192506e+02
2.810000e-06	6.620331e-09	2.814209e-09	3.383459e+01	3.218162e+02
2.820000e-06	6.671678e-09	2.838298e-09	3.409701e+01	3.243585e+02
2.830000e-06	6.722342e-09	2.861243e-09	3.435593e+01	3.268774e+02
2.840000e-06	6.772311e-09	2.884989e-09	3.461131e+01	3.293726e+02
2.850000e-06	6.821613e-09	2.906714e-09	3.486328e+01	3.318439e+02
2.860000e-06	6.870351e-09	2.922744e-09	3.511236e+01	3.342913e+02
2.870000e-06	6.918638e-09	2.936064e-09	3.535914e+01	3.367145e+02
2.880000e-06	6.966502e-09	2.954236e-09	3.560376e+01	3.391133e+02
2.890000e-06	7.013919e-09	2.979347e-09	3.584610e+01	3.414876e+02
2.900000e-06	7.060852e-09	3.007239e-09	3.608595e+01	3.438372e+02
