# Temperatura_=_20.0
# Concentracion g/m^3_=_10000.0
# C_Vs_to_Am_M_A/Vsm_=_116720831517.84952
# pendiente_HvsI_1/m_=_3716.3
# ordenada_HvsI_A/m_=_1297.0
# frecuencia_Hz_=_135693.6657367122
# Promedio de 22 ciclos

Tiempo_(s)	Campo_(V.s)	Magnetizacion_(V.s)	Campo_(kA/m)	Magnetizacion_(A/m)
0.000000e+00	-1.100794e-08	-4.683350e-09	-5.706315e+01	-5.504942e+02
1.000000e-08	-1.100802e-08	-4.686145e-09	-5.706354e+01	-5.503047e+02
2.000000e-08	-1.100759e-08	-4.689502e-09	-5.706130e+01	-5.500751e+02
3.000000e-08	-1.100641e-08	-4.687674e-09	-5.705520e+01	-5.498055e+02
4.000000e-08	-1.100419e-08	-4.684563e-09	-5.704367e+01	-5.494960e+02
5.000000e-08	-1.100094e-08	-4.682968e-09	-5.702686e+01	-5.491465e+02
6.000000e-08	-1.099697e-08	-4.681089e-09	-5.700625e+01	-5.487571e+02
7.000000e-08	-1.099244e-08	-4.685005e-09	-5.698277e+01	-5.483278e+02
8.000000e-08	-1.098728e-08	-4.705806e-09	-5.695602e+01	-5.478587e+02
9.000000e-08	-1.098132e-08	-4.713165e-09	-5.692513e+01	-5.473497e+02
1.000000e-07	-1.097436e-08	-4.634684e-09	-5.688907e+01	-5.468010e+02
1.100000e-07	-1.096609e-08	-4.534435e-09	-5.684620e+01	-5.462125e+02
1.200000e-07	-1.095629e-08	-4.530602e-09	-5.679536e+01	-5.455843e+02
1.300000e-07	-1.094540e-08	-4.676467e-09	-5.673895e+01	-5.449165e+02
1.400000e-07	-1.093434e-08	-4.741051e-09	-5.668161e+01	-5.442090e+02
1.500000e-07	-1.092301e-08	-4.574151e-09	-5.662289e+01	-5.434620e+02
1.600000e-07	-1.091064e-08	-4.560819e-09	-5.655873e+01	-5.426755e+02
1.700000e-07	-1.089724e-08	-4.767106e-09	-5.648928e+01	-5.418496e+02
1.800000e-07	-1.088334e-08	-4.571994e-09	-5.641723e+01	-5.409842e+02
1.900000e-07	-1.086852e-08	-4.238128e-09	-5.634040e+01	-5.400796e+02
2.000000e-07	-1.085228e-08	-4.434139e-09	-5.625622e+01	-5.391357e+02
2.100000e-07	-1.083523e-08	-4.660699e-09	-5.616783e+01	-5.381526e+02
2.200000e-07	-1.081777e-08	-4.452761e-09	-5.607734e+01	-5.371303e+02
2.300000e-07	-1.079954e-08	-4.326437e-09	-5.598283e+01	-5.360691e+02
2.400000e-07	-1.078047e-08	-4.491526e-09	-5.588397e+01	-5.349689e+02
2.500000e-07	-1.076087e-08	-4.426193e-09	-5.578234e+01	-5.338298e+02
2.600000e-07	-1.074065e-08	-4.297241e-09	-5.567757e+01	-5.326518e+02
2.700000e-07	-1.071968e-08	-4.455679e-09	-5.556886e+01	-5.314352e+02
2.800000e-07	-1.069802e-08	-4.491757e-09	-5.545657e+01	-5.301800e+02
2.900000e-07	-1.067557e-08	-4.328204e-09	-5.534017e+01	-5.288862e+02
3.000000e-07	-1.065220e-08	-4.443604e-09	-5.521904e+01	-5.275539e+02
3.100000e-07	-1.062824e-08	-4.526239e-09	-5.509486e+01	-5.261834e+02
3.200000e-07	-1.060379e-08	-4.301396e-09	-5.496812e+01	-5.247745e+02
3.300000e-07	-1.057845e-08	-4.255895e-09	-5.483673e+01	-5.233276e+02
3.400000e-07	-1.055209e-08	-4.424082e-09	-5.470011e+01	-5.218426e+02
3.500000e-07	-1.052492e-08	-4.367524e-09	-5.455926e+01	-5.203196e+02
3.600000e-07	-1.049698e-08	-4.320591e-09	-5.441442e+01	-5.187589e+02
3.700000e-07	-1.046840e-08	-4.402429e-09	-5.426626e+01	-5.171604e+02
3.800000e-07	-1.043924e-08	-4.345336e-09	-5.411507e+01	-5.155243e+02
3.900000e-07	-1.040929e-08	-4.281579e-09	-5.395982e+01	-5.138508e+02
4.000000e-07	-1.037850e-08	-4.315146e-09	-5.380025e+01	-5.121399e+02
4.100000e-07	-1.034701e-08	-4.254915e-09	-5.363701e+01	-5.103918e+02
4.200000e-07	-1.031490e-08	-4.211880e-09	-5.347055e+01	-5.086066e+02
4.300000e-07	-1.028214e-08	-4.283992e-09	-5.330070e+01	-5.067845e+02
4.400000e-07	-1.024860e-08	-4.278824e-09	-5.312687e+01	-5.049255e+02
4.500000e-07	-1.021412e-08	-4.242381e-09	-5.294812e+01	-5.030298e+02
4.600000e-07	-1.017867e-08	-4.238936e-09	-5.276435e+01	-5.010975e+02
4.700000e-07	-1.014251e-08	-4.200380e-09	-5.257688e+01	-4.991288e+02
4.800000e-07	-1.010577e-08	-4.171891e-09	-5.238647e+01	-4.971238e+02
4.900000e-07	-1.006842e-08	-4.187354e-09	-5.219283e+01	-4.950827e+02
5.000000e-07	-1.003035e-08	-4.156698e-09	-5.199549e+01	-4.930056e+02
5.100000e-07	-9.991541e-09	-4.152081e-09	-5.179431e+01	-4.908927e+02
5.200000e-07	-9.952059e-09	-4.165601e-09	-5.158964e+01	-4.887441e+02
5.300000e-07	-9.911979e-09	-4.132021e-09	-5.138188e+01	-4.865600e+02
5.400000e-07	-9.871262e-09	-4.094812e-09	-5.117081e+01	-4.843405e+02
5.500000e-07	-9.829737e-09	-4.097900e-09	-5.095555e+01	-4.820858e+02
5.600000e-07	-9.787245e-09	-4.074515e-09	-5.073528e+01	-4.797960e+02
5.700000e-07	-9.743768e-09	-4.054473e-09	-5.050990e+01	-4.774714e+02
5.800000e-07	-9.699520e-09	-4.045959e-09	-5.028053e+01	-4.751121e+02
5.900000e-07	-9.654687e-09	-4.025663e-09	-5.004812e+01	-4.727182e+02
6.000000e-07	-9.609275e-09	-4.001627e-09	-4.981272e+01	-4.702900e+02
6.100000e-07	-9.563226e-09	-3.989758e-09	-4.957400e+01	-4.678276e+02
6.200000e-07	-9.516497e-09	-3.960430e-09	-4.933177e+01	-4.653312e+02
6.300000e-07	-9.469119e-09	-3.936134e-09	-4.908617e+01	-4.628010e+02
6.400000e-07	-9.421102e-09	-3.927898e-09	-4.883726e+01	-4.602371e+02
6.500000e-07	-9.372334e-09	-3.914416e-09	-4.858446e+01	-4.576398e+02
6.600000e-07	-9.322692e-09	-3.889778e-09	-4.832712e+01	-4.550092e+02
6.700000e-07	-9.272115e-09	-3.866253e-09	-4.806494e+01	-4.523455e+02
6.800000e-07	-9.220606e-09	-3.842396e-09	-4.779793e+01	-4.496490e+02
6.900000e-07	-9.168248e-09	-3.824343e-09	-4.752652e+01	-4.469198e+02
7.000000e-07	-9.115155e-09	-3.808732e-09	-4.725129e+01	-4.441581e+02
7.100000e-07	-9.061378e-09	-3.783603e-09	-4.697252e+01	-4.413641e+02
7.200000e-07	-9.006945e-09	-3.759590e-09	-4.669035e+01	-4.385380e+02
7.300000e-07	-8.951945e-09	-3.739724e-09	-4.640524e+01	-4.356801e+02
7.400000e-07	-8.896418e-09	-3.718828e-09	-4.611740e+01	-4.327905e+02
7.500000e-07	-8.840363e-09	-3.694186e-09	-4.582682e+01	-4.298694e+02
7.600000e-07	-8.783743e-09	-3.673072e-09	-4.553331e+01	-4.269171e+02
7.700000e-07	-8.726471e-09	-3.649216e-09	-4.523642e+01	-4.239337e+02
7.800000e-07	-8.668461e-09	-3.627091e-09	-4.493571e+01	-4.209196e+02
7.900000e-07	-8.609647e-09	-3.601903e-09	-4.463083e+01	-4.178748e+02
8.000000e-07	-8.550078e-09	-3.578634e-09	-4.432204e+01	-4.147997e+02
8.100000e-07	-8.489870e-09	-3.553579e-09	-4.400993e+01	-4.116944e+02
8.200000e-07	-8.429078e-09	-3.530017e-09	-4.369480e+01	-4.085592e+02
8.300000e-07	-8.367726e-09	-3.505427e-09	-4.337676e+01	-4.053943e+02
8.400000e-07	-8.305787e-09	-3.485234e-09	-4.305567e+01	-4.021999e+02
8.500000e-07	-8.243275e-09	-3.458778e-09	-4.273162e+01	-3.989763e+02
8.600000e-07	-8.180222e-09	-3.429173e-09	-4.240477e+01	-3.957237e+02
8.700000e-07	-8.116652e-09	-3.398032e-09	-4.207524e+01	-3.924424e+02
8.800000e-07	-8.052568e-09	-3.373728e-09	-4.174303e+01	-3.891325e+02
8.900000e-07	-7.987953e-09	-3.350586e-09	-4.140808e+01	-3.857943e+02
9.000000e-07	-7.922794e-09	-3.327691e-09	-4.107031e+01	-3.824281e+02
9.100000e-07	-7.857024e-09	-3.299612e-09	-4.072937e+01	-3.790341e+02
9.200000e-07	-7.790582e-09	-3.270797e-09	-4.038495e+01	-3.756125e+02
9.300000e-07	-7.723467e-09	-3.241116e-09	-4.003704e+01	-3.721636e+02
9.400000e-07	-7.655736e-09	-3.213050e-09	-3.968593e+01	-3.686877e+02
9.500000e-07	-7.587447e-09	-3.185035e-09	-3.933194e+01	-3.651850e+02
9.600000e-07	-7.518663e-09	-3.157701e-09	-3.897537e+01	-3.616557e+02
9.700000e-07	-7.449410e-09	-3.131807e-09	-3.861638e+01	-3.581002e+02
9.800000e-07	-7.379654e-09	-3.106881e-09	-3.825477e+01	-3.545186e+02
9.900000e-07	-7.309369e-09	-3.078861e-09	-3.789043e+01	-3.509112e+02
1.000000e-06	-7.238596e-09	-3.046566e-09	-3.752356e+01	-3.472784e+02
1.010000e-06	-7.167375e-09	-3.012602e-09	-3.715436e+01	-3.436203e+02
1.020000e-06	-7.095701e-09	-2.979888e-09	-3.678281e+01	-3.399372e+02
1.030000e-06	-7.023552e-09	-2.951103e-09	-3.640880e+01	-3.362294e+02
1.040000e-06	-6.950896e-09	-2.924675e-09	-3.603217e+01	-3.324972e+02
1.050000e-06	-6.877708e-09	-2.896377e-09	-3.565278e+01	-3.287408e+02
1.060000e-06	-6.803963e-09	-2.862718e-09	-3.527050e+01	-3.249605e+02
1.070000e-06	-6.729579e-09	-2.831377e-09	-3.488490e+01	-3.211566e+02
1.080000e-06	-6.654540e-09	-2.802633e-09	-3.449592e+01	-3.173294e+02
1.090000e-06	-6.578868e-09	-2.775397e-09	-3.410365e+01	-3.134791e+02
1.100000e-06	-6.502598e-09	-2.745561e-09	-3.370828e+01	-3.096060e+02
1.110000e-06	-6.425811e-09	-2.716827e-09	-3.331023e+01	-3.057104e+02
1.120000e-06	-6.348533e-09	-2.685766e-09	-3.290963e+01	-3.017925e+02
1.130000e-06	-6.270770e-09	-2.651790e-09	-3.250653e+01	-2.978528e+02
1.140000e-06	-6.192513e-09	-2.612591e-09	-3.210086e+01	-2.938914e+02
1.150000e-06	-6.113750e-09	-2.574440e-09	-3.169257e+01	-2.899086e+02
1.160000e-06	-6.034516e-09	-2.544761e-09	-3.128183e+01	-2.859047e+02
1.170000e-06	-5.954854e-09	-2.524148e-09	-3.086888e+01	-2.818801e+02
1.180000e-06	-5.874750e-09	-2.504714e-09	-3.045364e+01	-2.778350e+02
1.190000e-06	-5.794170e-09	-2.477888e-09	-3.003593e+01	-2.737697e+02
1.200000e-06	-5.713116e-09	-2.439612e-09	-2.961576e+01	-2.696845e+02
1.210000e-06	-5.631589e-09	-2.394937e-09	-2.919314e+01	-2.655797e+02
1.220000e-06	-5.549598e-09	-2.348477e-09	-2.876811e+01	-2.614555e+02
1.230000e-06	-5.467207e-09	-2.308214e-09	-2.834101e+01	-2.573124e+02
1.240000e-06	-5.384471e-09	-2.275272e-09	-2.791212e+01	-2.531506e+02
1.250000e-06	-5.301437e-09	-2.250789e-09	-2.748168e+01	-2.489703e+02
1.260000e-06	-5.218135e-09	-2.230714e-09	-2.704987e+01	-2.447720e+02
1.270000e-06	-5.134516e-09	-2.207750e-09	-2.661640e+01	-2.405559e+02
1.280000e-06	-5.050579e-09	-2.175862e-09	-2.618128e+01	-2.363223e+02
1.290000e-06	-4.966338e-09	-2.134403e-09	-2.574459e+01	-2.320715e+02
1.300000e-06	-4.881786e-09	-2.091149e-09	-2.530629e+01	-2.278039e+02
1.310000e-06	-4.796964e-09	-2.050362e-09	-2.486659e+01	-2.235197e+02
1.320000e-06	-4.711893e-09	-2.013483e-09	-2.442560e+01	-2.192192e+02
1.330000e-06	-4.626544e-09	-1.982281e-09	-2.398316e+01	-2.149028e+02
1.340000e-06	-4.540897e-09	-1.954036e-09	-2.353918e+01	-2.105708e+02
1.350000e-06	-4.454935e-09	-1.926703e-09	-2.309357e+01	-2.062235e+02
1.360000e-06	-4.368640e-09	-1.898537e-09	-2.264623e+01	-2.018612e+02
1.370000e-06	-4.282033e-09	-1.867735e-09	-2.219728e+01	-1.974842e+02
1.380000e-06	-4.195141e-09	-1.830980e-09	-2.174685e+01	-1.930929e+02
1.390000e-06	-4.108002e-09	-1.787583e-09	-2.129513e+01	-1.886875e+02
1.400000e-06	-4.020619e-09	-1.743899e-09	-2.084215e+01	-1.842684e+02
1.410000e-06	-3.932998e-09	-1.703231e-09	-2.038795e+01	-1.798359e+02
1.420000e-06	-3.845144e-09	-1.668725e-09	-1.993253e+01	-1.753904e+02
1.430000e-06	-3.757019e-09	-1.637705e-09	-1.947570e+01	-1.709321e+02
1.440000e-06	-3.668612e-09	-1.606955e-09	-1.901742e+01	-1.664613e+02
1.450000e-06	-3.579917e-09	-1.574558e-09	-1.855764e+01	-1.619785e+02
1.460000e-06	-3.490946e-09	-1.540071e-09	-1.809643e+01	-1.574839e+02
1.470000e-06	-3.401722e-09	-1.501227e-09	-1.763391e+01	-1.529779e+02
1.480000e-06	-3.312248e-09	-1.455374e-09	-1.717009e+01	-1.484607e+02
1.490000e-06	-3.222540e-09	-1.406283e-09	-1.670506e+01	-1.439327e+02
1.500000e-06	-3.132588e-09	-1.362812e-09	-1.623877e+01	-1.393943e+02
1.510000e-06	-3.042372e-09	-1.327810e-09	-1.577111e+01	-1.348458e+02
1.520000e-06	-2.951935e-09	-1.296301e-09	-1.530230e+01	-1.302874e+02
1.530000e-06	-2.861308e-09	-1.260577e-09	-1.483251e+01	-1.257196e+02
1.540000e-06	-2.770491e-09	-1.219923e-09	-1.436172e+01	-1.211426e+02
1.550000e-06	-2.679469e-09	-1.180752e-09	-1.388988e+01	-1.165568e+02
1.560000e-06	-2.588236e-09	-1.145993e-09	-1.341695e+01	-1.119626e+02
1.570000e-06	-2.496808e-09	-1.109042e-09	-1.294301e+01	-1.073602e+02
1.580000e-06	-2.405181e-09	-1.067333e-09	-1.246803e+01	-1.027500e+02
1.590000e-06	-2.313359e-09	-1.023365e-09	-1.199204e+01	-9.813237e+01
1.600000e-06	-2.221346e-09	-9.811679e-10	-1.151506e+01	-9.350758e+01
1.610000e-06	-2.129147e-09	-9.416521e-10	-1.103712e+01	-8.887599e+01
1.620000e-06	-2.036778e-09	-9.025445e-10	-1.055829e+01	-8.423794e+01
1.630000e-06	-1.944228e-09	-8.617005e-10	-1.007853e+01	-7.959377e+01
1.640000e-06	-1.851523e-09	-8.206154e-10	-9.597965e+00	-7.494381e+01
1.650000e-06	-1.758676e-09	-7.800444e-10	-9.116663e+00	-7.028840e+01
1.660000e-06	-1.665701e-09	-7.385763e-10	-8.634697e+00	-6.562789e+01
1.670000e-06	-1.572631e-09	-6.955985e-10	-8.152236e+00	-6.096260e+01
1.680000e-06	-1.479487e-09	-6.528936e-10	-7.669398e+00	-5.629288e+01
1.690000e-06	-1.386285e-09	-6.112220e-10	-7.186254e+00	-5.161907e+01
1.700000e-06	-1.293028e-09	-5.696590e-10	-6.702826e+00	-4.694150e+01
1.710000e-06	-1.199718e-09	-5.267708e-10	-6.219123e+00	-4.226053e+01
1.720000e-06	-1.106332e-09	-4.830771e-10	-5.735025e+00	-3.757648e+01
1.730000e-06	-1.012863e-09	-4.406890e-10	-5.250499e+00	-3.288970e+01
1.740000e-06	-9.193444e-10	-4.007470e-10	-4.765718e+00	-2.820052e+01
1.750000e-06	-8.257682e-10	-3.605919e-10	-4.280636e+00	-2.350930e+01
1.760000e-06	-7.321170e-10	-3.184409e-10	-3.795165e+00	-1.881637e+01
1.770000e-06	-6.384127e-10	-2.752830e-10	-3.309419e+00	-1.412206e+01
1.780000e-06	-5.446585e-10	-2.304206e-10	-2.823415e+00	-9.426734e+00
1.790000e-06	-4.508791e-10	-1.860738e-10	-2.337279e+00	-4.730719e+00
1.800000e-06	-3.570748e-10	-1.430527e-10	-1.851015e+00	-3.435922e-02
1.810000e-06	-2.632353e-10	-1.010459e-10	-1.364569e+00	4.662004e+00
1.820000e-06	-1.693962e-10	-6.077711e-11	-8.781245e-01	9.358029e+00
1.830000e-06	-7.558542e-11	-2.098200e-11	-3.918266e-01	1.405338e+01
1.840000e-06	1.819489e-11	2.124608e-11	9.431300e-02	1.874770e+01
1.850000e-06	1.119639e-10	6.615597e-11	5.803943e-01	2.344066e+01
1.860000e-06	2.057215e-10	1.124149e-10	1.066416e+00	2.813192e+01
1.870000e-06	2.994589e-10	1.570516e-10	1.552333e+00	3.282114e+01
1.880000e-06	3.931872e-10	2.001709e-10	2.038204e+00	3.750797e+01
1.890000e-06	4.869105e-10	2.424573e-10	2.524048e+00	4.219208e+01
1.900000e-06	5.806061e-10	2.852502e-10	3.009749e+00	4.687312e+01
1.910000e-06	6.742663e-10	3.274564e-10	3.495267e+00	5.155076e+01
1.920000e-06	7.679077e-10	3.700502e-10	3.980686e+00	5.622464e+01
1.930000e-06	8.615029e-10	4.142234e-10	4.465867e+00	6.089445e+01
1.940000e-06	9.550286e-10	4.595289e-10	4.950687e+00	6.555982e+01
1.950000e-06	1.048482e-09	5.038496e-10	5.435133e+00	7.022044e+01
1.960000e-06	1.141854e-09	5.449209e-10	5.919158e+00	7.487595e+01
1.970000e-06	1.235139e-09	5.848311e-10	6.402728e+00	7.952602e+01
1.980000e-06	1.328338e-09	6.257101e-10	6.885857e+00	8.417031e+01
1.990000e-06	1.421418e-09	6.679152e-10	7.368367e+00	8.880848e+01
2.000000e-06	1.514386e-09	7.116431e-10	7.850297e+00	9.344020e+01
2.010000e-06	1.607285e-09	7.546267e-10	8.331866e+00	9.806513e+01
2.020000e-06	1.700098e-09	7.965261e-10	8.812994e+00	1.026829e+02
2.030000e-06	1.792809e-09	8.379823e-10	9.293592e+00	1.072933e+02
2.040000e-06	1.885412e-09	8.787963e-10	9.773629e+00	1.118958e+02
2.050000e-06	1.977890e-09	9.187291e-10	1.025302e+01	1.164902e+02
2.060000e-06	2.070199e-09	9.567962e-10	1.073153e+01	1.210762e+02
2.070000e-06	2.162340e-09	9.953457e-10	1.120917e+01	1.256533e+02
2.080000e-06	2.254309e-09	1.036924e-09	1.168592e+01	1.302213e+02
2.090000e-06	2.346077e-09	1.080662e-09	1.216163e+01	1.347799e+02
2.100000e-06	2.437596e-09	1.122703e-09	1.263605e+01	1.393286e+02
2.110000e-06	2.528868e-09	1.161996e-09	1.310919e+01	1.438672e+02
2.120000e-06	2.619892e-09	1.201554e-09	1.358103e+01	1.483954e+02
2.130000e-06	2.710661e-09	1.243948e-09	1.405156e+01	1.529128e+02
2.140000e-06	2.801226e-09	1.287944e-09	1.452103e+01	1.574191e+02
2.150000e-06	2.891598e-09	1.331194e-09	1.498951e+01	1.619139e+02
2.160000e-06	2.981795e-09	1.371279e-09	1.545707e+01	1.663969e+02
2.170000e-06	3.071815e-09	1.408398e-09	1.592372e+01	1.708679e+02
2.180000e-06	3.161640e-09	1.446793e-09	1.638935e+01	1.753265e+02
2.190000e-06	3.251255e-09	1.488957e-09	1.685390e+01	1.797723e+02
2.200000e-06	3.340618e-09	1.530820e-09	1.731714e+01	1.842050e+02
2.210000e-06	3.429719e-09	1.570021e-09	1.777902e+01	1.886244e+02
2.220000e-06	3.518542e-09	1.609184e-09	1.823947e+01	1.930300e+02
2.230000e-06	3.607044e-09	1.650350e-09	1.869824e+01	1.974216e+02
2.240000e-06	3.695213e-09	1.691598e-09	1.915530e+01	2.017989e+02
2.250000e-06	3.783080e-09	1.729622e-09	1.961078e+01	2.061615e+02
2.260000e-06	3.870661e-09	1.764208e-09	2.006479e+01	2.105091e+02
2.270000e-06	3.957981e-09	1.800412e-09	2.051744e+01	2.148414e+02
2.280000e-06	4.045074e-09	1.840184e-09	2.096891e+01	2.191581e+02
2.290000e-06	4.131916e-09	1.881244e-09	2.141908e+01	2.234589e+02
2.300000e-06	4.218504e-09	1.921703e-09	2.186795e+01	2.277434e+02
2.310000e-06	4.304825e-09	1.960799e-09	2.231541e+01	2.320114e+02
2.320000e-06	4.390869e-09	1.999835e-09	2.276145e+01	2.362625e+02
2.330000e-06	4.476645e-09	2.039395e-09	2.320610e+01	2.404965e+02
2.340000e-06	4.562135e-09	2.077091e-09	2.364927e+01	2.447129e+02
2.350000e-06	4.647349e-09	2.111516e-09	2.409100e+01	2.489116e+02
2.360000e-06	4.732292e-09	2.146861e-09	2.453133e+01	2.530922e+02
2.370000e-06	4.816939e-09	2.184619e-09	2.497012e+01	2.572544e+02
2.380000e-06	4.901242e-09	2.225829e-09	2.540714e+01	2.613979e+02
2.390000e-06	4.985185e-09	2.267947e-09	2.584228e+01	2.655224e+02
2.400000e-06	5.068772e-09	2.305613e-09	2.627558e+01	2.696276e+02
2.410000e-06	5.152031e-09	2.339429e-09	2.670718e+01	2.737132e+02
2.420000e-06	5.234979e-09	2.372625e-09	2.713717e+01	2.777789e+02
2.430000e-06	5.317621e-09	2.407484e-09	2.756557e+01	2.818244e+02
2.440000e-06	5.399952e-09	2.443454e-09	2.799236e+01	2.858494e+02
2.450000e-06	5.481937e-09	2.479433e-09	2.841735e+01	2.898537e+02
2.460000e-06	5.563548e-09	2.516451e-09	2.884041e+01	2.938369e+02
2.470000e-06	5.644744e-09	2.554505e-09	2.926131e+01	2.977987e+02
2.480000e-06	5.725453e-09	2.592325e-09	2.967970e+01	3.017389e+02
2.490000e-06	5.805693e-09	2.627702e-09	3.009564e+01	3.056572e+02
2.500000e-06	5.885505e-09	2.660553e-09	3.050937e+01	3.095532e+02
2.510000e-06	5.964863e-09	2.694692e-09	3.092075e+01	3.134268e+02
2.520000e-06	6.043760e-09	2.732126e-09	3.132974e+01	3.172775e+02
2.530000e-06	6.122164e-09	2.772116e-09	3.173617e+01	3.211052e+02
2.540000e-06	6.200062e-09	2.809747e-09	3.213998e+01	3.249096e+02
2.550000e-06	6.277496e-09	2.843101e-09	3.254138e+01	3.286904e+02
2.560000e-06	6.354500e-09	2.875021e-09	3.294056e+01	3.324472e+02
2.570000e-06	6.431064e-09	2.906930e-09	3.333745e+01	3.361799e+02
2.580000e-06	6.507122e-09	2.938067e-09	3.373172e+01	3.398882e+02
2.590000e-06	6.582582e-09	2.969485e-09	3.412289e+01	3.435717e+02
2.600000e-06	6.657440e-09	3.003449e-09	3.451094e+01	3.472303e+02
2.610000e-06	6.731753e-09	3.040198e-09	3.489616e+01	3.508637e+02
2.620000e-06	6.805506e-09	3.077724e-09	3.527848e+01	3.544715e+02
2.630000e-06	6.878682e-09	3.112841e-09	3.565781e+01	3.580536e+02
2.640000e-06	6.951284e-09	3.144572e-09	3.603417e+01	3.616097e+02
2.650000e-06	7.023343e-09	3.175639e-09	3.640771e+01	3.651395e+02
2.660000e-06	7.094906e-09	3.207705e-09	3.677868e+01	3.686427e+02
2.670000e-06	7.166002e-09	3.238722e-09	3.714723e+01	3.721192e+02
2.680000e-06	7.236640e-09	3.268440e-09	3.751341e+01	3.755686e+02
2.690000e-06	7.306755e-09	3.298389e-09	3.787687e+01	3.789907e+02
2.700000e-06	7.376362e-09	3.329777e-09	3.823770e+01	3.823852e+02
2.710000e-06	7.445523e-09	3.361250e-09	3.859621e+01	3.857520e+02
2.720000e-06	7.514262e-09	3.392035e-09	3.895255e+01	3.890907e+02
2.730000e-06	7.582534e-09	3.422736e-09	3.930646e+01	3.924012e+02
2.740000e-06	7.650241e-09	3.453267e-09	3.965744e+01	3.956831e+02
2.750000e-06	7.717336e-09	3.484571e-09	4.000524e+01	3.989363e+02
2.760000e-06	7.783780e-09	3.516228e-09	4.034968e+01	4.021605e+02
2.770000e-06	7.849580e-09	3.547740e-09	4.069077e+01	4.053554e+02
2.780000e-06	7.914745e-09	3.577423e-09	4.102857e+01	4.085209e+02
2.790000e-06	7.979289e-09	3.604896e-09	4.136316e+01	4.116567e+02
2.800000e-06	8.043267e-09	3.633005e-09	4.169481e+01	4.147625e+02
2.810000e-06	8.106737e-09	3.662854e-09	4.202383e+01	4.178383e+02
2.820000e-06	8.169716e-09	3.693337e-09	4.235030e+01	4.208836e+02
2.830000e-06	8.232167e-09	3.722893e-09	4.267403e+01	4.238984e+02
2.840000e-06	8.294077e-09	3.750909e-09	4.299496e+01	4.268823e+02
2.850000e-06	8.355479e-09	3.778298e-09	4.331326e+01	4.298353e+02
2.860000e-06	8.416401e-09	3.806694e-09	4.362907e+01	4.327570e+02
2.870000e-06	8.476833e-09	3.835510e-09	4.394234e+01	4.356472e+02
2.880000e-06	8.536710e-09	3.862742e-09	4.425273e+01	4.385058e+02
2.890000e-06	8.595887e-09	3.887859e-09	4.455949e+01	4.413325e+02
2.900000e-06	8.654274e-09	3.913679e-09	4.486216e+01	4.441271e+02
