# Temperatura_=_20.0
# Concentracion g/m^3_=_10000.0
# C_Vs_to_Am_M_A/Vsm_=_116720831517.84952
# pendiente_HvsI_1/m_=_3716.3
# ordenada_HvsI_A/m_=_1297.0
# frecuencia_Hz_=_311139.1527040637
# Promedio de 22 ciclos

Tiempo_(s)	Campo_(V.s)	Magnetizacion_(V.s)	Campo_(kA/m)	Magnetizacion_(A/m)
0.000000e+00	-9.493923e-09	-4.100600e-09	-4.568424e+01	-4.754441e+02
1.000000e-08	-9.488318e-09	-4.094865e-09	-4.565726e+01	-4.751779e+02
2.000000e-08	-9.479374e-09	-4.087489e-09	-4.561422e+01	-4.747296e+02
3.000000e-08	-9.466822e-09	-4.077635e-09	-4.555382e+01	-4.740995e+02
4.000000e-08	-9.450607e-09	-4.068881e-09	-4.547580e+01	-4.732877e+02
5.000000e-08	-9.431170e-09	-4.060947e-09	-4.538226e+01	-4.722947e+02
6.000000e-08	-9.408872e-09	-4.050387e-09	-4.527496e+01	-4.711207e+02
7.000000e-08	-9.383504e-09	-4.038535e-09	-4.515289e+01	-4.697663e+02
8.000000e-08	-9.354628e-09	-4.009833e-09	-4.501394e+01	-4.682319e+02
9.000000e-08	-9.321769e-09	-3.961578e-09	-4.485582e+01	-4.665181e+02
1.000000e-07	-9.284863e-09	-3.953068e-09	-4.467823e+01	-4.646256e+02
1.100000e-07	-9.244281e-09	-3.953996e-09	-4.448295e+01	-4.625552e+02
1.200000e-07	-9.200296e-09	-3.931446e-09	-4.427130e+01	-4.603075e+02
1.300000e-07	-9.153308e-09	-3.936368e-09	-4.404519e+01	-4.578835e+02
1.400000e-07	-9.103550e-09	-3.960402e-09	-4.380576e+01	-4.552840e+02
1.500000e-07	-9.050574e-09	-3.891275e-09	-4.355084e+01	-4.525102e+02
1.600000e-07	-8.993962e-09	-3.821192e-09	-4.327842e+01	-4.495630e+02
1.700000e-07	-8.934118e-09	-3.851496e-09	-4.299045e+01	-4.464435e+02
1.800000e-07	-8.871091e-09	-3.789982e-09	-4.268717e+01	-4.431530e+02
1.900000e-07	-8.804627e-09	-3.787453e-09	-4.236735e+01	-4.396927e+02
2.000000e-07	-8.735068e-09	-3.801014e-09	-4.203263e+01	-4.360640e+02
2.100000e-07	-8.662006e-09	-3.724375e-09	-4.168106e+01	-4.322682e+02
2.200000e-07	-8.585032e-09	-3.727541e-09	-4.131066e+01	-4.283068e+02
2.300000e-07	-8.504336e-09	-3.665883e-09	-4.092236e+01	-4.241812e+02
2.400000e-07	-8.420298e-09	-3.601282e-09	-4.051796e+01	-4.198932e+02
2.500000e-07	-8.333248e-09	-3.575556e-09	-4.009908e+01	-4.154442e+02
2.600000e-07	-8.242928e-09	-3.523985e-09	-3.966447e+01	-4.108361e+02
2.700000e-07	-8.149398e-09	-3.509957e-09	-3.921440e+01	-4.060705e+02
2.800000e-07	-8.052634e-09	-3.474921e-09	-3.874878e+01	-4.011493e+02
2.900000e-07	-7.952557e-09	-3.429944e-09	-3.826721e+01	-3.960744e+02
3.000000e-07	-7.849374e-09	-3.357021e-09	-3.777070e+01	-3.908477e+02
3.100000e-07	-7.743085e-09	-3.294082e-09	-3.725924e+01	-3.854712e+02
3.200000e-07	-7.633789e-09	-3.253389e-09	-3.673331e+01	-3.799470e+02
3.300000e-07	-7.521453e-09	-3.195402e-09	-3.619275e+01	-3.742772e+02
3.400000e-07	-7.406010e-09	-3.175487e-09	-3.563725e+01	-3.684639e+02
3.500000e-07	-7.287565e-09	-3.123213e-09	-3.506730e+01	-3.625094e+02
3.600000e-07	-7.166268e-09	-3.061014e-09	-3.448362e+01	-3.564159e+02
3.700000e-07	-7.042256e-09	-3.006083e-09	-3.388688e+01	-3.501858e+02
3.800000e-07	-6.915594e-09	-2.931982e-09	-3.327739e+01	-3.438215e+02
3.900000e-07	-6.786356e-09	-2.873246e-09	-3.265550e+01	-3.373253e+02
4.000000e-07	-6.654554e-09	-2.814777e-09	-3.202128e+01	-3.306999e+02
4.100000e-07	-6.520302e-09	-2.769216e-09	-3.137526e+01	-3.239476e+02
4.200000e-07	-6.383547e-09	-2.718021e-09	-3.071720e+01	-3.170711e+02
4.300000e-07	-6.244186e-09	-2.658692e-09	-3.004660e+01	-3.100731e+02
4.400000e-07	-6.102285e-09	-2.591237e-09	-2.936378e+01	-3.029561e+02
4.500000e-07	-5.957877e-09	-2.512041e-09	-2.866890e+01	-2.957229e+02
4.600000e-07	-5.811217e-09	-2.447073e-09	-2.796317e+01	-2.883764e+02
4.700000e-07	-5.662545e-09	-2.386048e-09	-2.724777e+01	-2.809192e+02
4.800000e-07	-5.511809e-09	-2.331499e-09	-2.652244e+01	-2.733542e+02
4.900000e-07	-5.358904e-09	-2.272838e-09	-2.578667e+01	-2.656844e+02
5.000000e-07	-5.203879e-09	-2.201773e-09	-2.504069e+01	-2.579126e+02
5.100000e-07	-5.046893e-09	-2.127728e-09	-2.428528e+01	-2.500419e+02
5.200000e-07	-4.887967e-09	-2.051642e-09	-2.352054e+01	-2.420752e+02
5.300000e-07	-4.727050e-09	-1.982055e-09	-2.274622e+01	-2.340156e+02
5.400000e-07	-4.564180e-09	-1.914722e-09	-2.196249e+01	-2.258662e+02
5.500000e-07	-4.399382e-09	-1.848990e-09	-2.116949e+01	-2.176300e+02
5.600000e-07	-4.232808e-09	-1.782020e-09	-2.036794e+01	-2.093103e+02
5.700000e-07	-4.064556e-09	-1.708956e-09	-1.955833e+01	-2.009102e+02
5.800000e-07	-3.894713e-09	-1.631077e-09	-1.874105e+01	-1.924329e+02
5.900000e-07	-3.723366e-09	-1.546393e-09	-1.791653e+01	-1.838817e+02
6.000000e-07	-3.550405e-09	-1.465838e-09	-1.708425e+01	-1.752598e+02
6.100000e-07	-3.375953e-09	-1.393867e-09	-1.624480e+01	-1.665705e+02
6.200000e-07	-3.200166e-09	-1.327376e-09	-1.539892e+01	-1.578172e+02
6.300000e-07	-3.023106e-09	-1.259892e-09	-1.454692e+01	-1.490032e+02
6.400000e-07	-2.844906e-09	-1.183770e-09	-1.368943e+01	-1.401318e+02
6.500000e-07	-2.665703e-09	-1.102107e-09	-1.282712e+01	-1.312065e+02
6.600000e-07	-2.485539e-09	-1.019774e-09	-1.196018e+01	-1.222307e+02
6.700000e-07	-2.304298e-09	-9.422566e-10	-1.108806e+01	-1.132078e+02
6.800000e-07	-2.122086e-09	-8.672650e-10	-1.021126e+01	-1.041412e+02
6.900000e-07	-1.939132e-09	-7.911838e-10	-9.330894e+00	-9.503448e+01
7.000000e-07	-1.755510e-09	-7.144134e-10	-8.447313e+00	-8.589102e+01
7.100000e-07	-1.571264e-09	-6.371957e-10	-7.560732e+00	-7.671436e+01
7.200000e-07	-1.386480e-09	-5.587807e-10	-6.671562e+00	-6.750800e+01
7.300000e-07	-1.201261e-09	-4.768788e-10	-5.780300e+00	-5.827546e+01
7.400000e-07	-1.015653e-09	-3.949352e-10	-4.887163e+00	-4.902027e+01
7.500000e-07	-8.296821e-10	-3.159302e-10	-3.992281e+00	-3.974596e+01
7.600000e-07	-6.433961e-10	-2.397558e-10	-3.095883e+00	-3.045609e+01
7.700000e-07	-4.568673e-10	-1.640108e-10	-2.198317e+00	-2.115421e+01
7.800000e-07	-2.701749e-10	-8.280511e-11	-1.299964e+00	-1.184386e+01
7.900000e-07	-8.337614e-11	2.834032e-12	-4.010983e-01	-2.528617e+00
8.000000e-07	1.034897e-10	8.673841e-11	4.980896e-01	6.787968e+00
8.100000e-07	2.904153e-10	1.656669e-10	1.397565e+00	1.610233e+01
8.200000e-07	4.773484e-10	2.417917e-10	2.297077e+00	2.541091e+01
8.300000e-07	6.641873e-10	3.193050e-10	3.196135e+00	3.471014e+01
8.400000e-07	8.508508e-10	3.991716e-10	4.094350e+00	4.399649e+01
8.500000e-07	1.037274e-09	4.798958e-10	4.991408e+00	5.326638e+01
8.600000e-07	1.223390e-09	5.588221e-10	5.886989e+00	6.251628e+01
8.700000e-07	1.409127e-09	6.383024e-10	6.780744e+00	7.174266e+01
8.800000e-07	1.594402e-09	7.207688e-10	7.672274e+00	8.094198e+01
8.900000e-07	1.779113e-09	8.029084e-10	8.561094e+00	9.011074e+01
9.000000e-07	1.963139e-09	8.818907e-10	9.446618e+00	9.924542e+01
9.100000e-07	2.146369e-09	9.580035e-10	1.032831e+01	1.083425e+02
9.200000e-07	2.328729e-09	1.034808e-09	1.120581e+01	1.173986e+02
9.300000e-07	2.510118e-09	1.114713e-09	1.207865e+01	1.264102e+02
9.400000e-07	2.690386e-09	1.196461e-09	1.294609e+01	1.353738e+02
9.500000e-07	2.869458e-09	1.275256e-09	1.380777e+01	1.442860e+02
9.600000e-07	3.047304e-09	1.348820e-09	1.466355e+01	1.531434e+02
9.700000e-07	3.223833e-09	1.421056e-09	1.551300e+01	1.619427e+02
9.800000e-07	3.398993e-09	1.495984e-09	1.635586e+01	1.706804e+02
9.900000e-07	3.572820e-09	1.573804e-09	1.719230e+01	1.793533e+02
1.000000e-06	3.745227e-09	1.650079e-09	1.802192e+01	1.879580e+02
1.010000e-06	3.916102e-09	1.722456e-09	1.884416e+01	1.964912e+02
1.020000e-06	4.085435e-09	1.794003e-09	1.965898e+01	2.049496e+02
1.030000e-06	4.253191e-09	1.867058e-09	2.046621e+01	2.133301e+02
1.040000e-06	4.419344e-09	1.940438e-09	2.126573e+01	2.216294e+02
1.050000e-06	4.583821e-09	2.010882e-09	2.205718e+01	2.298443e+02
1.060000e-06	4.746525e-09	2.078094e-09	2.284011e+01	2.379718e+02
1.070000e-06	4.907441e-09	2.146216e-09	2.361443e+01	2.460086e+02
1.080000e-06	5.066558e-09	2.217558e-09	2.438009e+01	2.539518e+02
1.090000e-06	5.223857e-09	2.289851e-09	2.513700e+01	2.617983e+02
1.100000e-06	5.379231e-09	2.358803e-09	2.588465e+01	2.695450e+02
1.110000e-06	5.532537e-09	2.422442e-09	2.662235e+01	2.771891e+02
1.120000e-06	5.683730e-09	2.484628e-09	2.734988e+01	2.847276e+02
1.130000e-06	5.832849e-09	2.548728e-09	2.806743e+01	2.921576e+02
1.140000e-06	5.979860e-09	2.614352e-09	2.877484e+01	2.994763e+02
1.150000e-06	6.124624e-09	2.678668e-09	2.947143e+01	3.066809e+02
1.160000e-06	6.267059e-09	2.739452e-09	3.015682e+01	3.137687e+02
1.170000e-06	6.407037e-09	2.799099e-09	3.083038e+01	3.207368e+02
1.180000e-06	6.544450e-09	2.860153e-09	3.149161e+01	3.275827e+02
1.190000e-06	6.679322e-09	2.921609e-09	3.214060e+01	3.343038e+02
1.200000e-06	6.811651e-09	2.979704e-09	3.277736e+01	3.408974e+02
1.210000e-06	6.941343e-09	3.033430e-09	3.340143e+01	3.473611e+02
1.220000e-06	7.068367e-09	3.086463e-09	3.401266e+01	3.536924e+02
1.230000e-06	7.192743e-09	3.141597e-09	3.461115e+01	3.598888e+02
1.240000e-06	7.314344e-09	3.196889e-09	3.519629e+01	3.659480e+02
1.250000e-06	7.433020e-09	3.248021e-09	3.576735e+01	3.718677e+02
1.260000e-06	7.548585e-09	3.294210e-09	3.632344e+01	3.776456e+02
1.270000e-06	7.660991e-09	3.338365e-09	3.686433e+01	3.832795e+02
1.280000e-06	7.770442e-09	3.382859e-09	3.739100e+01	3.887673e+02
1.290000e-06	7.876905e-09	3.427013e-09	3.790329e+01	3.941068e+02
1.300000e-06	7.980294e-09	3.468980e-09	3.840079e+01	3.992961e+02
1.310000e-06	8.080619e-09	3.508093e-09	3.888355e+01	4.043330e+02
1.320000e-06	8.177764e-09	3.544452e-09	3.935100e+01	4.092158e+02
1.330000e-06	8.271809e-09	3.578866e-09	3.980354e+01	4.139425e+02
1.340000e-06	8.362800e-09	3.611297e-09	4.024139e+01	4.185113e+02
1.350000e-06	8.450663e-09	3.641983e-09	4.066417e+01	4.229205e+02
1.360000e-06	8.535480e-09	3.672761e-09	4.107231e+01	4.271684e+02
1.370000e-06	8.617135e-09	3.703801e-09	4.146522e+01	4.312534e+02
1.380000e-06	8.695446e-09	3.733576e-09	4.184205e+01	4.351739e+02
1.390000e-06	8.770321e-09	3.760237e-09	4.220235e+01	4.389284e+02
1.400000e-06	8.841843e-09	3.783867e-09	4.254650e+01	4.425155e+02
1.410000e-06	8.910139e-09	3.805759e-09	4.287514e+01	4.459338e+02
1.420000e-06	8.975103e-09	3.827374e-09	4.318774e+01	4.491820e+02
1.430000e-06	9.036780e-09	3.849443e-09	4.348453e+01	4.522588e+02
1.440000e-06	9.095129e-09	3.869431e-09	4.376530e+01	4.551631e+02
1.450000e-06	9.149974e-09	3.886805e-09	4.402921e+01	4.578938e+02
1.460000e-06	9.201051e-09	3.903185e-09	4.427498e+01	4.604499e+02
1.470000e-06	9.248362e-09	3.919317e-09	4.450264e+01	4.628302e+02
1.480000e-06	9.292142e-09	3.934231e-09	4.471330e+01	4.650340e+02
1.490000e-06	9.332383e-09	3.946310e-09	4.490694e+01	4.670604e+02
1.500000e-06	9.369120e-09	3.956034e-09	4.508371e+01	4.689087e+02
1.510000e-06	9.402331e-09	3.964725e-09	4.524352e+01	4.705780e+02
1.520000e-06	9.432032e-09	3.972745e-09	4.538644e+01	4.720678e+02
1.530000e-06	9.458101e-09	3.979534e-09	4.551188e+01	4.733775e+02
1.540000e-06	9.480539e-09	3.984484e-09	4.561985e+01	4.745067e+02
1.550000e-06	9.499451e-09	3.988065e-09	4.571085e+01	4.754548e+02
1.560000e-06	9.514615e-09	3.991359e-09	4.578381e+01	4.762215e+02
1.570000e-06	9.525824e-09	3.994284e-09	4.583775e+01	4.768065e+02
1.580000e-06	9.533213e-09	3.995357e-09	4.587330e+01	4.772097e+02
1.590000e-06	9.536987e-09	3.993254e-09	4.589146e+01	4.774308e+02
1.600000e-06	9.537193e-09	3.987587e-09	4.589245e+01	4.774697e+02
1.610000e-06	9.533976e-09	3.983902e-09	4.587697e+01	4.773265e+02
1.620000e-06	9.527366e-09	3.982101e-09	4.584516e+01	4.770011e+02
1.630000e-06	9.517274e-09	3.977060e-09	4.579660e+01	4.764938e+02
1.640000e-06	9.503616e-09	3.971367e-09	4.573087e+01	4.758047e+02
1.650000e-06	9.486642e-09	3.962002e-09	4.564919e+01	4.749341e+02
1.660000e-06	9.466669e-09	3.947814e-09	4.555308e+01	4.738823e+02
1.670000e-06	9.443593e-09	3.930755e-09	4.544204e+01	4.726497e+02
1.680000e-06	9.417458e-09	3.930427e-09	4.531628e+01	4.712368e+02
1.690000e-06	9.387803e-09	3.960033e-09	4.517358e+01	4.696441e+02
1.700000e-06	9.353630e-09	3.938530e-09	4.500913e+01	4.678722e+02
1.710000e-06	9.314854e-09	3.898295e-09	4.482255e+01	4.659219e+02
1.720000e-06	9.272509e-09	3.880730e-09	4.461878e+01	4.637938e+02
1.730000e-06	9.227402e-09	3.801130e-09	4.440173e+01	4.614888e+02
1.740000e-06	9.179946e-09	3.738806e-09	4.417337e+01	4.590077e+02
1.750000e-06	9.129947e-09	3.796987e-09	4.393278e+01	4.563515e+02
1.760000e-06	9.076241e-09	3.767910e-09	4.367435e+01	4.535212e+02
1.770000e-06	9.018947e-09	3.741849e-09	4.339865e+01	4.505180e+02
1.780000e-06	8.958531e-09	3.777560e-09	4.310793e+01	4.473428e+02
1.790000e-06	8.894421e-09	3.685941e-09	4.279943e+01	4.439971e+02
1.800000e-06	8.826839e-09	3.705751e-09	4.247423e+01	4.404819e+02
1.810000e-06	8.755732e-09	3.699273e-09	4.213207e+01	4.367988e+02
1.820000e-06	8.680705e-09	3.648275e-09	4.177104e+01	4.329490e+02
1.830000e-06	8.602250e-09	3.688424e-09	4.139351e+01	4.289341e+02
1.840000e-06	8.520441e-09	3.616002e-09	4.099985e+01	4.247555e+02
1.850000e-06	8.435337e-09	3.613577e-09	4.059033e+01	4.204150e+02
1.860000e-06	8.346908e-09	3.587441e-09	4.016482e+01	4.159141e+02
1.870000e-06	8.255013e-09	3.518375e-09	3.972262e+01	4.112546e+02
1.880000e-06	8.159987e-09	3.515767e-09	3.926536e+01	4.064382e+02
1.890000e-06	8.061773e-09	3.453192e-09	3.879276e+01	4.014669e+02
1.900000e-06	7.960442e-09	3.471187e-09	3.830516e+01	3.963424e+02
1.910000e-06	7.856050e-09	3.432672e-09	3.780283e+01	3.910667e+02
1.920000e-06	7.748674e-09	3.391120e-09	3.728614e+01	3.856420e+02
1.930000e-06	7.638312e-09	3.354772e-09	3.675508e+01	3.800702e+02
1.940000e-06	7.524637e-09	3.251060e-09	3.620808e+01	3.743534e+02
1.950000e-06	7.407891e-09	3.230415e-09	3.564630e+01	3.684939e+02
1.960000e-06	7.288202e-09	3.166332e-09	3.507037e+01	3.624939e+02
1.970000e-06	7.165757e-09	3.137148e-09	3.448116e+01	3.563557e+02
1.980000e-06	7.040716e-09	3.098405e-09	3.387947e+01	3.500816e+02
1.990000e-06	6.912984e-09	3.023197e-09	3.326483e+01	3.436741e+02
2.000000e-06	6.782777e-09	2.975040e-09	3.263828e+01	3.371355e+02
2.010000e-06	6.650051e-09	2.889614e-09	3.199961e+01	3.304684e+02
2.020000e-06	6.514835e-09	2.834878e-09	3.134896e+01	3.236754e+02
2.030000e-06	6.377126e-09	2.765921e-09	3.068631e+01	3.167590e+02
2.040000e-06	6.236871e-09	2.712189e-09	3.001140e+01	3.097218e+02
2.050000e-06	6.094222e-09	2.671020e-09	2.932498e+01	3.025667e+02
2.060000e-06	5.949317e-09	2.608630e-09	2.862771e+01	2.952962e+02
2.070000e-06	5.802267e-09	2.546438e-09	2.792011e+01	2.879132e+02
2.080000e-06	5.652934e-09	2.453704e-09	2.720153e+01	2.804204e+02
2.090000e-06	5.501362e-09	2.373666e-09	2.647217e+01	2.728209e+02
2.100000e-06	5.347683e-09	2.309342e-09	2.573268e+01	2.651174e+02
2.110000e-06	5.191935e-09	2.254537e-09	2.498322e+01	2.573129e+02
2.120000e-06	5.034142e-09	2.204573e-09	2.422393e+01	2.494105e+02
2.130000e-06	4.874269e-09	2.130706e-09	2.345463e+01	2.414130e+02
2.140000e-06	4.712453e-09	2.052396e-09	2.267597e+01	2.333236e+02
2.150000e-06	4.548712e-09	1.970765e-09	2.188806e+01	2.251454e+02
2.160000e-06	4.383121e-09	1.896560e-09	2.109125e+01	2.168815e+02
2.170000e-06	4.215801e-09	1.826039e-09	2.028611e+01	2.085350e+02
2.180000e-06	4.046815e-09	1.749840e-09	1.947296e+01	2.001091e+02
2.190000e-06	3.876355e-09	1.682141e-09	1.865271e+01	1.916072e+02
2.200000e-06	3.704404e-09	1.609247e-09	1.782529e+01	1.830323e+02
2.210000e-06	3.531010e-09	1.539417e-09	1.699093e+01	1.743878e+02
2.220000e-06	3.356246e-09	1.459973e-09	1.614997e+01	1.656770e+02
2.230000e-06	3.180138e-09	1.374155e-09	1.530255e+01	1.569033e+02
2.240000e-06	3.002823e-09	1.293071e-09	1.444932e+01	1.480699e+02
2.250000e-06	2.824251e-09	1.216845e-09	1.359004e+01	1.391803e+02
2.260000e-06	2.644476e-09	1.150573e-09	1.272497e+01	1.302378e+02
2.270000e-06	2.463701e-09	1.075022e-09	1.185510e+01	1.212459e+02
2.280000e-06	2.282066e-09	9.920055e-10	1.098108e+01	1.122080e+02
2.290000e-06	2.099623e-09	9.032517e-10	1.010317e+01	1.031275e+02
2.300000e-06	1.916386e-09	8.205476e-10	9.221447e+00	9.400805e+01
2.310000e-06	1.732454e-09	7.463777e-10	8.336375e+00	8.485296e+01
2.320000e-06	1.547927e-09	6.715641e-10	7.448442e+00	7.566580e+01
2.330000e-06	1.362941e-09	5.945315e-10	6.558295e+00	6.645007e+01
2.340000e-06	1.177559e-09	5.113218e-10	5.666249e+00	5.720929e+01
2.350000e-06	9.917737e-10	4.287271e-10	4.772258e+00	4.794700e+01
2.360000e-06	8.055860e-10	3.452705e-10	3.876332e+00	3.866674e+01
2.370000e-06	6.190626e-10	2.610475e-10	2.978791e+00	2.937205e+01
2.380000e-06	4.323131e-10	1.776101e-10	2.080163e+00	2.006648e+01
2.390000e-06	2.453992e-10	9.746154e-11	1.180744e+00	1.075360e+01
2.400000e-06	5.834931e-11	2.457419e-11	2.806700e-01	1.436968e+00
2.410000e-06	-1.287974e-10	-4.927026e-11	-6.198694e-01	-7.879861e+00
2.420000e-06	-3.159786e-10	-1.305016e-10	-1.520575e+00	-1.719332e+01
2.430000e-06	-5.031161e-10	-2.205026e-10	-2.421070e+00	-2.649986e+01
2.440000e-06	-6.901069e-10	-3.126253e-10	-3.320859e+00	-3.579591e+01
2.450000e-06	-8.768567e-10	-3.975018e-10	-4.219489e+00	-4.507792e+01
2.460000e-06	-1.063313e-09	-4.751690e-10	-5.116705e+00	-5.434234e+01
2.470000e-06	-1.249409e-09	-5.512135e-10	-6.012190e+00	-6.358564e+01
2.480000e-06	-1.435080e-09	-6.304197e-10	-6.905629e+00	-7.280428e+01
2.490000e-06	-1.620256e-09	-7.124367e-10	-7.796689e+00	-8.199473e+01
2.500000e-06	-1.804837e-09	-7.949363e-10	-8.684883e+00	-9.115348e+01
2.510000e-06	-1.988692e-09	-8.753668e-10	-9.569579e+00	-1.002770e+02
2.520000e-06	-2.171708e-09	-9.546534e-10	-1.045024e+01	-1.093619e+02
2.530000e-06	-2.353779e-09	-1.034623e-09	-1.132636e+01	-1.184046e+02
2.540000e-06	-2.534817e-09	-1.112328e-09	-1.219750e+01	-1.274017e+02
2.550000e-06	-2.714743e-09	-1.187546e-09	-1.306329e+01	-1.363497e+02
2.560000e-06	-2.893366e-09	-1.262185e-09	-1.392282e+01	-1.452453e+02
2.570000e-06	-3.070558e-09	-1.336717e-09	-1.477545e+01	-1.540850e+02
2.580000e-06	-3.246341e-09	-1.413436e-09	-1.562131e+01	-1.628654e+02
2.590000e-06	-3.420723e-09	-1.490163e-09	-1.646042e+01	-1.715832e+02
2.600000e-06	-3.593674e-09	-1.563395e-09	-1.729265e+01	-1.802351e+02
2.610000e-06	-3.765213e-09	-1.634410e-09	-1.811809e+01	-1.888177e+02
2.620000e-06	-3.935390e-09	-1.707204e-09	-1.893697e+01	-1.973278e+02
2.630000e-06	-4.104208e-09	-1.783475e-09	-1.974932e+01	-2.057621e+02
2.640000e-06	-4.271539e-09	-1.859929e-09	-2.055451e+01	-2.141174e+02
2.650000e-06	-4.437205e-09	-1.932363e-09	-2.135168e+01	-2.223905e+02
2.660000e-06	-4.601151e-09	-1.999460e-09	-2.214058e+01	-2.305783e+02
2.670000e-06	-4.763334e-09	-2.064582e-09	-2.292099e+01	-2.386775e+02
2.680000e-06	-4.923693e-09	-2.130799e-09	-2.369263e+01	-2.466851e+02
2.690000e-06	-5.082155e-09	-2.198017e-09	-2.445514e+01	-2.545981e+02
2.700000e-06	-5.238651e-09	-2.265292e-09	-2.520819e+01	-2.624134e+02
2.710000e-06	-5.393151e-09	-2.332043e-09	-2.595163e+01	-2.701281e+02
2.720000e-06	-5.545657e-09	-2.397812e-09	-2.668548e+01	-2.777391e+02
2.730000e-06	-5.696111e-09	-2.463024e-09	-2.740945e+01	-2.852436e+02
2.740000e-06	-5.844440e-09	-2.527182e-09	-2.812321e+01	-2.926388e+02
2.750000e-06	-5.990635e-09	-2.589066e-09	-2.882669e+01	-2.999217e+02
2.760000e-06	-6.134630e-09	-2.648748e-09	-2.951958e+01	-3.070896e+02
2.770000e-06	-6.276249e-09	-2.708084e-09	-3.020105e+01	-3.141397e+02
2.780000e-06	-6.415324e-09	-2.768506e-09	-3.087026e+01	-3.210694e+02
2.790000e-06	-6.551874e-09	-2.827898e-09	-3.152734e+01	-3.278761e+02
2.800000e-06	-6.685905e-09	-2.884278e-09	-3.217228e+01	-3.345570e+02
2.810000e-06	-6.817335e-09	-2.937553e-09	-3.280471e+01	-3.411097e+02
2.820000e-06	-6.946188e-09	-2.990356e-09	-3.342475e+01	-3.475317e+02
2.830000e-06	-7.072396e-09	-3.046201e-09	-3.403205e+01	-3.538204e+02
2.840000e-06	-7.195816e-09	-3.102961e-09	-3.462594e+01	-3.599736e+02
2.850000e-06	-7.316426e-09	-3.156651e-09	-3.520631e+01	-3.659888e+02
2.860000e-06	-7.434108e-09	-3.205791e-09	-3.577259e+01	-3.718637e+02
2.870000e-06	-7.548587e-09	-3.252067e-09	-3.632345e+01	-3.775962e+02
2.880000e-06	-7.659723e-09	-3.299501e-09	-3.685823e+01	-3.831839e+02
2.890000e-06	-7.767793e-09	-3.348173e-09	-3.737825e+01	-3.886248e+02
2.900000e-06	-7.873044e-09	-3.396058e-09	-3.788472e+01	-3.939168e+02
2.910000e-06	-7.975253e-09	-3.441131e-09	-3.837654e+01	-3.990579e+02
2.920000e-06	-8.074306e-09	-3.483966e-09	-3.885317e+01	-4.040461e+02
2.930000e-06	-8.170332e-09	-3.524849e-09	-3.931524e+01	-4.088795e+02
